#  coords = 17:59:10.26 -27:50:06.3
#  HJD', qn, qe, qr (AU)
   6445.0000000000000        8.7418678249965687E-002  0.67648581882251646       0.97412604503989020
   6446.0000000000000        8.6745458019160726E-002  0.69278602320655547       0.96239087275529178     
   6447.0000000000000        8.6047179186122646E-002  0.70887815132881382       0.95037582672475118     
   6448.0000000000000        8.5324578743155133E-002  0.72476306920730649       0.93809274604140747     
   6449.0000000000000        8.4577865279589437E-002  0.74043665343591270       0.92554485091397576     
   6450.0000000000000        8.3807069884953345E-002  0.75589424972077390       0.91273589930295096     
   6451.0000000000000        8.3012736119892905E-002  0.77113164023162484       0.89966937703557104     
   6452.0000000000000        8.2193836246782503E-002  0.78613765072313446       0.88634179383494516     
   6453.0000000000000        8.1351960933976508E-002  0.80091436630918000       0.87276460674786838     
   6454.0000000000000        8.0486732401434780E-002  0.81545757248089323       0.85894178236415364     
   6455.0000000000000        7.9598792884270742E-002  0.82976282796764156       0.84487755230832662     
   6456.0000000000000        7.8687574159056084E-002  0.84381895376226790       0.83056899974927711     
   6457.0000000000000        7.7754541460941851E-002  0.85763601708641490       0.81603443424793642     
   6458.0000000000000        7.6798879409958498E-002  0.87119546204859066       0.80126448562713493     
   6459.0000000000000        7.5820942212535269E-002  0.88449317040893594       0.78626374272374566     
   6460.0000000000000        7.4822139284438149E-002  0.89753988383151873       0.77105031535212021     
   6461.0000000000000        7.3802030761723203E-002  0.91032454313349886       0.75562194470795541     
   6462.0000000000000        7.2760699673885987E-002  0.92283565510492471       0.73997699041931808     
   6463.0000000000000        7.1698857380638720E-002  0.93507715268704128       0.72412672570000236     
   6464.0000000000000        7.0617480473393418E-002  0.94705337854900651       0.70808207831472647     
   6465.0000000000000        6.9515849993259549E-002  0.95874539310458784       0.69183527909499121     
   6466.0000000000000        6.8394657821478438E-002  0.97015774081534356       0.67539734609898483     
   6467.0000000000000        6.7255045203883507E-002  0.98129539640704733       0.65877884967943490     
   6468.0000000000000        6.6096729358523676E-002  0.99214768359333616       0.64197804690540916     
   6469.0000000000000        6.4920157579634818E-002   1.0027115930232797       0.62499977860520273     
   6470.0000000000000        6.3725526897032148E-002   1.0129842431638443       0.60784888477603460     
   6471.0000000000000        6.2512907214798880E-002   1.0229632307315666       0.59052957072680934     
   6472.0000000000000        6.1283686712414631E-002   1.0326544990027744       0.57305157144210295     
   6473.0000000000000        6.0037125437387401E-002   1.0420469907603613       0.55541438144550348     
   6474.0000000000000        5.8773764806811235E-002   1.0511381688431825       0.53762277357961219     
   6475.0000000000000        5.7494645683280998E-002   1.0599345191174054       0.51968597758753210     
   6476.0000000000000        5.6199181651812008E-002   1.0684247894988368       0.50160426998385277     
   6477.0000000000000        5.4887757300320028E-002   1.0766063930851975       0.48338310362136400     
   6478.0000000000000        5.3561160494810106E-002   1.0844864552061759       0.46503093505786502     
   6479.0000000000000        5.2219161316833823E-002   1.0920441893356199       0.44654539369438717     
   6480.0000000000000        5.0862731567514807E-002   1.0992959635708615       0.42793916566996076     
   6481.0000000000000        4.9492098887730152E-002   1.1062396686701790       0.40921756952528221     
   6482.0000000000000        4.8107069837707295E-002   1.1128547845090591       0.39037833037570913     
   6483.0000000000000        4.6708853321274460E-002   1.1191579235646152       0.37143429734469924     
   6484.0000000000000        4.5297158070097321E-002   1.1251379679254563       0.35238718847788325     
   6485.0000000000000        4.3872581216781045E-002   1.1307930928750778       0.33324266507065459     
   6486.0000000000000        4.2436002077050602E-002   1.1361311381031962       0.31400936747181940     
   6487.0000000000000        4.0987127813303631E-002   1.1411313759536366       0.29468721819545635     
   6488.0000000000000        3.9526840318112225E-002   1.1458116074598970       0.27528718732377150     
   6489.0000000000000        3.8055752524787045E-002   1.1501704395841319       0.25581507325921338     
   6490.0000000000000        3.6573582490290260E-002   1.1541872301983003       0.23627172241087657     
   6491.0000000000000        3.5081628136272074E-002   1.1578803235063897       0.21666722364964958     
   6492.0000000000000        3.3579970184566217E-002   1.1612388159081826       0.19700572106049549     
   6493.0000000000000        3.2069279707651006E-002   1.1642717205697752       0.17729415918334024     
   6494.0000000000000        3.0549765190603193E-002   1.1669683256879682       0.15753679312408103     
   6495.0000000000000        2.9021836086694938E-002   1.1693279459882211       0.13773910360215505     
   6496.0000000000000        2.7486329905719340E-002   1.1713598836916057       0.11790794946186697     
   6497.0000000000000        2.5943625101158923E-002   1.1730636835700319        9.8048336068079237E-002
   6498.0000000000000        2.4393704370538265E-002   1.1744290082225806        7.8164251627000636E-002
   6499.0000000000000        2.2837558228996337E-002   1.1754654498367541        5.8261986528222391E-002
   6500.0000000000000        2.1275104543403537E-002   1.1761727785471052        3.8346121465534108E-002
   6501.0000000000000        1.9707010484950278E-002   1.1765507772789809        1.8421775755114164E-002
   6502.0000000000000        1.8133504485608257E-002   1.1765893079132361       -1.5064592005259326E-003
   6503.0000000000000        1.6554800065860922E-002   1.1762982853507984       -2.1433025347613849E-002
   6504.0000000000000        1.4971628113700345E-002   1.1756676987569943       -4.1352539838064549E-002
   6505.0000000000000        1.3383990278904780E-002   1.1747076094609483       -6.1260145925048935E-002
   6506.0000000000000        1.1792024575198783E-002   1.1734181666380397       -8.1150432902356434E-002
   6507.0000000000000        1.0197142791411734E-002   1.1717995409745359      -0.10101866238848506     
   6508.0000000000000        8.5994147284660719E-003   1.1698420858261331      -0.12085840598108892     
   6509.0000000000000        6.9989034112587084E-003   1.1675561871944156      -0.14066486944180023     
   6510.0000000000000        5.3962916222053542E-003   1.1649422312960971      -0.16043341385010493     
   6511.0000000000000        3.7917973385517278E-003   1.1619909762669351      -0.18015650903355829     
   6512.0000000000000        2.1862595586201877E-003   1.1587129236307292      -0.19983056142710237     
   6513.0000000000000        5.7964334369334236E-004   1.1551088210028964      -0.21945015050095840     
   6514.0000000000000       -1.0274328946794781E-003   1.1511697867973945      -0.23900749935198368     
   6515.0000000000000       -2.6342615388895430E-003   1.1469065478010441      -0.25849931078677341     
   6516.0000000000000       -4.2404796567445668E-003   1.1423104764239307      -0.27791761978041851     
   6517.0000000000000       -5.8456850226644153E-003   1.1373924961327457      -0.29725916269736335     
   6518.0000000000000       -7.4493773427727616E-003   1.1321539959740452      -0.31651806311363428     
   6519.0000000000000       -9.0508085923668991E-003   1.1265866204516917      -0.33568660143511908     
   6520.0000000000000       -1.0649819509086667E-002   1.1207016108311836      -0.35476160224130016     
   6521.0000000000000       -1.2245753648572305E-002   1.1145005040531755      -0.37373785141833854     
   6522.0000000000000       -1.3838213078230965E-002   1.1079755515667762      -0.39260666651128062     
   6523.0000000000000       -1.5426651571542410E-002   1.1011380012151950      -0.41136595095011907     
   6524.0000000000000       -1.7010442435306916E-002   1.0939896447054451      -0.43001063966535608     
   6525.0000000000000       -1.8589611645865839E-002   1.0865323721639411      -0.44853563401212115     
   6526.0000000000000       -2.0163361253913464E-002   1.0787679088325299      -0.46693647676748751     
   6527.0000000000000       -2.1731365571536765E-002   1.0706891208558151      -0.48520412635446347     
   6528.0000000000000       -2.3293480864705063E-002   1.0623162592305602      -0.50334198784086648     
   6529.0000000000000       -2.4849216550311387E-002   1.0536419997234601      -0.52134177058392661     
   6530.0000000000000       -2.6397963170543770E-002   1.0446596271968918      -0.53919404748689326     
   6531.0000000000000       -2.7939683312783070E-002   1.0353890925747427      -0.55690329607000233     
   6532.0000000000000       -2.9473721374016021E-002   1.0258148047687650      -0.57445578808607012     
   6533.0000000000000       -3.1000027056221291E-002   1.0159565649510112      -0.59185654727767945     
   6534.0000000000000       -3.2517934910111151E-002   1.0057994149799598      -0.60909097082057617     
   6535.0000000000000       -3.4027286352218938E-002  0.99536287169046012      -0.62616486834029983     
   6536.0000000000000       -3.5527614314347894E-002  0.98464088360241553      -0.64306849079999640     
   6537.0000000000000       -3.7019252915193868E-002  0.97362787297886688      -0.65979145490999525     
   6538.0000000000000       -3.8499907569761321E-002  0.96233470873671423      -0.67633506864404369     
   6539.0000000000000       -3.9970713109218126E-002  0.95077240794658135      -0.69270036183114581     
   6540.0000000000000       -4.1430422766915220E-002  0.93892751705819799      -0.70887127024607377     
   6541.0000000000000       -4.2879109163581675E-002  0.92681125806482689      -0.72484890723628093     
   6542.0000000000000       -4.4316165666416218E-002  0.91442663883406539      -0.74062885749291507     
   6543.0000000000000       -4.5740930864889340E-002  0.90176925902552241      -0.75620009806940214     
   6544.0000000000000       -4.7153666288453355E-002  0.88885792728081470      -0.77157076005095671     
   6545.0000000000000       -4.8553187914838758E-002  0.87568075666548217      -0.78672353005936890     
   6546.0000000000000       -4.9939380772709541E-002  0.86224901354978789      -0.80166031265147186     
   6547.0000000000000       -5.1311783019064028E-002  0.84856635790834956      -0.81637669861992235     
   6548.0000000000000       -5.2669781888701472E-002  0.83463644990557206      -0.83086844173119256     
   6549.0000000000000       -5.4012926993114774E-002  0.82045616194977322      -0.84512406316249455     
   6550.0000000000000       -5.5341530102949510E-002  0.80604340230173888      -0.85915362162520248     
   6551.0000000000000       -5.6654116568245316E-002  0.79138828568607766      -0.87293861711733367     
   6552.0000000000000       -5.7950837721927162E-002  0.77650175338978555      -0.88648222621207451     
   6553.0000000000000       -5.9231301405756220E-002  0.76138762444164687      -0.89978073477980514     
   6554.0000000000000       -6.0495351766616190E-002  0.74604977099727188      -0.91283047303951859     
   6555.0000000000000       -6.1742619644427510E-002  0.73049217367768993      -0.92562780101674080     
   6556.0000000000000       -6.2972584539034093E-002  0.71471877820738861      -0.93816922144899417     
   6557.0000000000000       -6.4184965711381603E-002  0.69873357686306026      -0.95045128162404124     
   6558.0000000000000       -6.5379693464321487E-002  0.68254009832077911      -0.96247093606340772     
   6559.0000000000000       -6.6556399903997532E-002  0.66614277629522289      -0.97422457992062161     
   6560.0000000000000       -6.7714591249373846E-002  0.64954534415386100      -0.98570920479620794     
   6561.0000000000000       -6.8854830127412670E-002  0.63275746577194647      -0.99692988017111261     
   6562.0000000000000       -6.9975299957617587E-002  0.61577212261712566       -1.0078669237570210     
   6563.0000000000000       -7.1077398619716292E-002  0.59860435979394400       -1.0185339593460478     
   6564.0000000000000       -7.2159265871787448E-002  0.58124804020622323       -1.0289109192273493     
   6565.0000000000000       -7.3221842658351965E-002  0.56371748697238211       -1.0390120688130899     
   6566.0000000000000       -7.4263640706714651E-002  0.54600754477301472       -1.0488169193524333     
   6567.0000000000000       -7.5284951822624513E-002  0.52812725456569265       -1.0583314279628895     
   6568.0000000000000       -7.6286299179744943E-002  0.51008612401230324       -1.0675613945097320     
   6569.0000000000000       -7.7265757334872454E-002  0.49187960503217315       -1.0764863122663759     
   6570.0000000000000       -7.8223812325191822E-002  0.47351714466932593       -1.0851122195374643     
   6571.0000000000000       -7.9160258668454997E-002  0.45500334521480407       -1.0934365048739139     
   6572.0000000000000       -8.0074638908967932E-002  0.43634329093859670       -1.1014564622609799     
   6573.0000000000000       -8.0966535357500313E-002  0.41754224402096163       -1.1091694284509208     
   6574.0000000000000       -8.1835189939923891E-002  0.39860178451963507       -1.1165635580052120     
   6575.0000000000000       -8.2680774536841861E-002  0.37953099428419995       -1.1236456496599072     
   6576.0000000000000       -8.3503074108693232E-002  0.36033531066547769       -1.1304133193668640     
   6577.0000000000000       -8.4301276552532112E-002  0.34101711865876477       -1.1368547979637889     
   6578.0000000000000       -8.5076123575727913E-002  0.32158766727489380       -1.1429870487254086     
   6579.0000000000000       -8.5826399578149026E-002  0.30204702179185061       -1.1487887928867191     
   6580.0000000000000       -8.6551354137365921E-002  0.28240119350439313       -1.1542580004073102     
   6581.0000000000000       -8.7252673654829804E-002  0.26266013452975906       -1.1594122583313033     
   6582.0000000000000       -8.7928321386828823E-002  0.24282478233700927       -1.1642304480991204     
   6583.0000000000000       -8.8579183769721404E-002  0.22290270060801712       -1.1687206683653466     
   6584.0000000000000       -8.9205792415098684E-002  0.20290111185058735       -1.1728912088976495     
   6585.0000000000000       -8.9805608735950448E-002  0.18281985781268853       -1.1767112544413407     
   6586.0000000000000       -9.0380625523928448E-002  0.16266916560143319       -1.1802089769157140     
   6587.0000000000000       -9.0930120623189892E-002  0.14245247345399120       -1.1833732929090008     
   6588.0000000000000       -9.1454166486893473E-002  0.12217529472252961       -1.1862029730158539     
   6589.0000000000000       -9.1951339871326587E-002  0.10184168623493121       -1.1886870565631198     
   6590.0000000000000       -9.2423402448331526E-002   8.1458662367075607E-002  -1.1908443395361294     
   6591.0000000000000       -9.2868473755479186E-002   6.1030198983952143E-002  -1.1926539790711752     
   6592.0000000000000       -9.3287486885837545E-002   4.0562102539299053E-002  -1.1941250198903448     
   6593.0000000000000       -9.3680815599229583E-002   2.0060069981181417E-002  -1.1952666264817291     
   6594.0000000000000       -9.4046778374490991E-002  -4.7123482154939065E-004  -1.1960581273145223     
   6595.0000000000000       -9.4385313719294206E-002  -2.1025726097096270E-002  -1.1964988472189182     
   6596.0000000000000       -9.4697800957467160E-002  -4.1598373245419609E-002  -1.1966081425166530     
   6597.0000000000000       -9.4982544680352443E-002  -6.2183227262936930E-002  -1.1963655754213303     
   6598.0000000000000       -9.5240505348327897E-002  -8.2774631228094281E-002  -1.1957806918352747     
   6599.0000000000000       -9.5470279635300082E-002 -0.10336661222999081       -1.1948432446067778     
   6600.0000000000000       -9.5673351480466906E-002 -0.12395500076202379       -1.1935728748604255     
   6601.0000000000000       -9.5847536918861831E-002 -0.14453077804920803       -1.1919397065133277     
   6602.0000000000000       -9.5994671925991426E-002 -0.16509103027493482       -1.1899735352874794     
   6603.0000000000000       -9.6113496494950434E-002 -0.18562776695055302       -1.1876546030005806     
   6604.0000000000000       -9.6203850914479361E-002 -0.20613422469800607       -1.1849832593236820     
   6605.0000000000000       -9.6266225614663636E-002 -0.22660584752522853       -1.1819697454982847     
   6606.0000000000000       -9.6299831826319238E-002 -0.24703444990451023       -1.1786048050770019     
   6607.0000000000000       -9.6304728459433775E-002 -0.26741373433327781       -1.1748890936451346     
   6608.0000000000000       -9.6281620065631013E-002 -0.28773991867529725       -1.1708330491313741     
   6609.0000000000000       -9.6230773261667790E-002 -0.30800676118331166       -1.1664375404807701     
   6610.0000000000000       -9.6150969908048389E-002 -0.32820633731423882       -1.1616937510516760     
   6611.0000000000000       -9.6042587974575322E-002 -0.34833221196676306       -1.1566028204623606     
   6612.0000000000000       -9.5906167215345228E-002 -0.36838144608268880       -1.1511754287127958     
   6613.0000000000000       -9.5741968372417385E-002 -0.38834837705459546       -1.1454127252354223     
   6614.0000000000000       -9.5549406554022054E-002 -0.40822468180608745       -1.1393063328497268     
   6615.0000000000000       -9.5328013205994988E-002 -0.42800420661197419       -1.1328578139469456     
   6616.0000000000000       -9.5079924830914819E-002 -0.44768863602289855       -1.1260871123807894     
   6617.0000000000000       -9.4802587403752914E-002 -0.46726156268836611       -1.1189678804843237     
   6618.0000000000000       -9.4497801126314840E-002 -0.48672487552374283       -1.1115201884035613     
   6619.0000000000000       -9.4165437765986071E-002 -0.50607330905281378       -1.1037456095471798     
   6620.0000000000000       -9.3805071992639266E-002 -0.52529731075008690       -1.0956367612886957     
   6621.0000000000000       -9.3417129721774295E-002 -0.54439602683585686       -1.0872043445184894     
   6622.0000000000000       -9.3002107301798032E-002 -0.56336395870695266       -1.0784502475624249     
   6623.0000000000000       -9.2558242706865468E-002 -0.58218662919923092       -1.0693587175913677     
   6624.0000000000000       -9.2087173407570611E-002 -0.60086767797388685       -1.0599496017075873     
   6625.0000000000000       -9.1589168228876972E-002 -0.61940216212718691       -1.0502247997049527     
   6626.0000000000000       -9.1063438798675567E-002 -0.63777964290757505       -1.0401779838598999     
   6627.0000000000000       -9.0510163620240336E-002 -0.65599463238563083       -1.0298115726008705     
   6628.0000000000000       -8.9930361103298773E-002 -0.67404695771779732       -1.0191365273324338     
   6629.0000000000000       -8.9322900866926735E-002 -0.69192592057218305       -1.0081470428072752     
   6630.0000000000000       -8.8687914086455766E-002 -0.70962593210777070      -0.99684596401609149     
   6631.0000000000000       -8.8025850307882458E-002 -0.72714127838477638      -0.98523633705143432     
   6632.0000000000000       -8.7336750050159062E-002 -0.74446632656347911      -0.97332133989949854     
   6633.0000000000000       -8.6620976674061101E-002 -0.76159533432640270      -0.96110436583769965     
